SCL_LLRF:FCM23d

Initial Phase:    125.359758635
Sync Phase:    78.92574041211634
Initial Energy:    0.9760249708117575

Amplitude:    0.014809361524892158
Frequency:    1.0002977958200936
Phase:    -155.71450095288364
Offset:    0.9731961363867946

-180.0    0.9866620062780902
-176.0    0.9870595153852524
-172.0    0.9873900201717143
-168.0    0.9876518121707715
-164.0    0.9878435067395802
-160.0    0.9879640661015031
-156.0    0.9880127951521499
-152.0    0.9879893724963096
-148.0    0.9878937838853464
-144.0    0.987726380372114
-140.0    0.9874878627955351
-136.0    0.9871793021045149
-132.0    0.9868021414458606
-128.0    0.9863581096312086
-124.0    0.9858493013965498
-120.0    0.9852781602350041
-116.0    0.984647369015852
-112.0    0.9839600488735621
-108.0    0.9832195041318699
-104.0    0.9824293208464029
-100.0    0.9815934104899865
-96.0    0.9807158470986324
-92.0    0.979800981500626
-88.0    0.9788533317789858
-84.0    0.977877560062365
-80.0    0.97687854360373
-76.0    0.9758612480919062
-72.0    0.974830689838448
-68.0    0.9737920569407826
-64.0    0.9727504940479273
-60.0    0.9717111809157309
-56.0    0.9706793095552777
-52.0    0.9696600134296585
-48.0    0.9686583570332781
-44.0    0.9676793238297837
-40.0    0.9667277855100154
-36.0    0.9658084185456361
-32.0    0.9649257846945376
-28.0    0.9640842399482189
-24.0    0.963287904117045
-20.0    0.9625406645501439
-16.0    0.9618461987388897
-12.0    0.9612078285674421
-8.0    0.9606286510173723
-4.0    0.960111476731236
0.0    0.9596586949980974
4.0    0.9592724970759219
8.0    0.9589546630299108
12.0    0.9587066476526617
16.0    0.9585295415505543
20.0    0.9584240867469088
24.0    0.9583907378650179
28.0    0.9584294972772865
32.0    0.9585400826562307
36.0    0.9587218489833558
40.0    0.9589737716098111
44.0    0.9592945727555644
48.0    0.9596825764634881
52.0    0.9601358069345346
56.0    0.9606520128154784
60.0    0.9612286084413089
64.0    0.961862768387387
68.0    0.9625513555364135
72.0    0.9632910238189963
76.0    0.9640781896590703
80.0    0.9649090058876323
84.0    0.9657795090062599
88.0    0.9666854749622233
92.0    0.9676225780743901
96.0    0.9685863202964535
100.0    0.9695720935331972
104.0    0.9705751874505135
108.0    0.971590839107529
112.0    0.9726141975088637
116.0    0.973640352733412
120.0    0.9746644778434703
124.0    0.9756816344928492
128.0    0.9766870090476891
132.0    0.9776757892461478
136.0    0.978643245112118
140.0    0.979584765863137
144.0    0.980495798016757
148.0    0.9813720019358504
152.0    0.9822091267820937
156.0    0.9830031376572286
160.0    0.9837501742876524
164.0    0.9844466068378116
168.0    0.9850890374057736
172.0    0.9856742823590853
176.0    0.986199473595812
180.0    0.9866620008428252
