SCL_LLRF:FCM23d

Initial Phase:    -175.03
Sync Phase:    19.315496773519214
Initial Energy:    0.9871458916820737

Amplitude:    0.014809360615011872
Frequency:    1.0002977136536468
Phase:    -155.7145032264808
Offset:    0.9731961361794367

-180.0    0.9866619924210743
-176.0    0.9870595298770253
-172.0    0.987390017242931
-168.0    0.9876518111617866
-164.0    0.9878434972815165
-160.0    0.9879640571071345
-156.0    0.9880127993574652
-152.0    0.9879893790301453
-148.0    0.9878937780365953
-144.0    0.9877263763805109
-140.0    0.987487867335003
-136.0    0.9871793172530191
-132.0    0.9868021463120233
-128.0    0.9863581125728639
-124.0    0.9858492980323841
-120.0    0.9852781476661235
-116.0    0.9846473723864996
-112.0    0.983960046683952
-108.0    0.9832194873388639
-104.0    0.9824293146073663
-100.0    0.9815934028193409
-96.0    0.9807158429761441
-92.0    0.9798009663292284
-88.0    0.9788533236549075
-84.0    0.977877569028564
-80.0    0.9768785353469593
-76.0    0.9758612384319374
-72.0    0.9748307035188287
-68.0    0.9737920553043657
-64.0    0.9727504817392556
-60.0    0.9717111815660601
-56.0    0.9706793027627862
-52.0    0.9696600103823262
-48.0    0.9686583598825023
-44.0    0.9676793304561251
-40.0    0.9667277827852416
-36.0    0.9658084142808477
-32.0    0.9649257954338616
-28.0    0.9640842454922398
-24.0    0.9632878958088742
-20.0    0.9625406755211805
-16.0    0.9618461884203167
-12.0    0.961207814541902
-8.0    0.9606286586956634
-4.0    0.9601114752119798
0.0    0.9596587045422229
4.0    0.9592725049736545
8.0    0.9589546597794986
12.0    0.9587066542909664
16.0    0.958529533861819
20.0    0.9584240858614417
24.0    0.9583907399114661
28.0    0.9584295014267628
32.0    0.9585400843900767
36.0    0.9587218445659823
40.0    0.958973766905492
44.0    0.95929457976623
48.0    0.9596825776509105
52.0    0.960135811157797
56.0    0.9606519994871131
60.0    0.9612286027034455
64.0    0.9618627644064236
68.0    0.9625513613262124
72.0    0.9632910214527466
76.0    0.964078192054911
80.0    0.9649090155387121
84.0    0.9657795127288882
88.0    0.9666854644755406
92.0    0.9676225671791073
96.0    0.9685863215043246
100.0    0.9695720892627566
104.0    0.9705752022257157
108.0    0.9715908315472891
112.0    0.9726141848360426
116.0    0.9736403578605111
120.0    0.9746644789867812
124.0    0.9756816462873302
128.0    0.976687004899433
132.0    0.9776757986511129
136.0    0.9786432469793865
140.0    0.9795847490355509
144.0    0.9804957915745057
148.0    0.9813719893568673
152.0    0.9822091171816577
156.0    0.9830031297861945
160.0    0.9837501649362491
164.0    0.9844465995830625
168.0    0.9850890383617804
172.0    0.9856742862707525
176.0    0.9861994895412624
180.0    0.9866619972365617
