SCL_LLRF:FCM23b

Initial Phase:    -166.586670448
Sync Phase:    18.91205395140429

Amplitude:    0.014851964922134735
Frequency:    1.0005256388187753
Phase:    -147.67461649659572
Offset:    0.9451970334826398

-180.0    0.9577068486307005
-176.0    0.9582342963456635
-172.0    0.9586989260876626
-168.0    0.959098433567988
-164.0    0.9594307793842547
-160.0    0.9596942659724609
-156.0    0.9598874685499277
-152.0    0.9600093739772982
-148.0    0.9600592483048597
-144.0    0.9600367498126666
-140.0    0.959941869180989
-136.0    0.9597749530055376
-132.0    0.9595366760785615
-128.0    0.9592281323835922
-124.0    0.9588507009548344
-120.0    0.9584061745295421
-116.0    0.9578966021640088
-112.0    0.9573244280724685
-108.0    0.9566923843396623
-104.0    0.956003541038546
-100.0    0.9552612327140256
-96.0    0.9544690733222001
-92.0    0.9536309502877879
-88.0    0.9527509695114109
-84.0    0.9518334864150098
-80.0    0.9508830373599085
-76.0    0.9499043057806881
-72.0    0.948902207098345
-68.0    0.9478816823067163
-64.0    0.9468478316025957
-60.0    0.9458058050070218
-56.0    0.9447607914779353
-52.0    0.9437179994117624
-48.0    0.942682663607342
-44.0    0.9416599007088315
-40.0    0.9406548337529745
-36.0    0.9396724400430579
-32.0    0.9387176329478534
-28.0    0.9377950912129961
-24.0    0.9369094122734807
-20.0    0.9360649733717948
-16.0    0.9352658929318542
-12.0    0.934516085522255
-8.0    0.9338192168389441
-4.0    0.933178677424095
0.0    0.9325975223906563
4.0    0.9320785485029697
8.0    0.9316242420396631
12.0    0.931236695376699
16.0    0.9309177389860348
20.0    0.9306688275537772
24.0    0.9304910345138259
28.0    0.9303851370123495
32.0    0.9303515373311133
36.0    0.930390246044749
40.0    0.9305009903879926
44.0    0.9306830993891293
48.0    0.9309355574779296
52.0    0.9312570706533362
56.0    0.9316459484214239
60.0    0.9321002172029912
64.0    0.9326176053367047
68.0    0.9331955339803317
72.0    0.9338311493107198
76.0    0.934521330442145
80.0    0.9352627221708145
84.0    0.9360516945327418
88.0    0.9368844436187286
92.0    0.9377569659157481
96.0    0.9386650325371796
100.0    0.9396043215980093
104.0    0.9405703173528668
108.0    0.9415584257760528
112.0    0.9425639147531707
116.0    0.9435820209438993
120.0    0.9446078806860754
124.0    0.945636600038803
128.0    0.9466633014577802
132.0    0.9476830971414594
136.0    0.9486911312827834
140.0    0.9496825825653947
144.0    0.9506527191753383
148.0    0.9515969145817951
152.0    0.9525106296669572
156.0    0.9533894991774085
160.0    0.9542292704946531
164.0    0.9550258925508279
168.0    0.9557754879342988
172.0    0.9564744101931834
176.0    0.9571192629770229
180.0    0.9577068638547046
